# Send Buffer on DEVICE (D) and Receive Buffer on DEVICE (D)
# Size      Bandwidth (MB/s)        Validation
1                       0.42
2                       0.85
4                       1.73
8                       3.42
16                      6.94
32                     14.00
64                     27.93
128                    55.92
256                   113.14
512                   224.44
1024                  446.16
2048                  874.13
4096                 1603.50
8192                 2741.90
16384                4522.88
32768                7036.86
65536               12271.31
131072              24026.39
262144              45250.70
524288              67125.45
1048576             91581.38
2097152            113512.22
4194304            139214.74
