0 gpu 4 2
1 gpu 2 2
#Using RCCL
#Using RCCL
# Send Buffer on DEVICE (D) and Receive Buffer on DEVICE (D)
# Size      Bandwidth (MB/s)        Validation
1                       0.24
2                       0.49
4                       0.98
8                       1.95
16                      3.91
32                      7.83
64                     15.42
128                    30.73
256                    60.53
512                   119.32
1024                  235.67
2048                  423.22
4096                  727.37
8192                 1509.47
16384                2934.85
32768                4574.64
65536                6299.96
131072              13278.85
262144              26656.04
524288              35824.98
1048576             42299.41
2097152             48322.65
4194304             55807.15
