0 gpu 4 2
1 gpu 2 2
#Using RCCL
#Using RCCL
# Send Buffer on DEVICE (D) and Receive Buffer on DEVICE (D)
# Size      Bandwidth (MB/s)        Validation
1                       0.24
2                       0.49
4                       0.97
8                       1.92
16                      3.82
32                      7.67
64                     15.47
128                    30.66
256                    61.18
512                   120.81
1024                  233.70
2048                  422.73
4096                  724.35
8192                 1507.69
16384                2931.01
32768                4566.72
65536                6298.88
131072              13307.41
262144              26906.13
524288              35622.88
1048576             42592.52
2097152             49483.42
4194304             55394.19
