1 gpu 2 2
0 gpu 4 2
#Using RCCL
#Using RCCL
# Send Buffer on DEVICE (D) and Receive Buffer on DEVICE (D)
# Size      Bandwidth (MB/s)        Validation
1                       0.24
2                       0.49
4                       0.98
8                       1.94
16                      3.89
32                      7.79
64                     15.55
128                    30.99
256                    61.00
512                   120.90
1024                  235.98
2048                  423.91
4096                  726.36
8192                 1518.09
16384                2947.71
32768                4593.02
65536                6318.97
131072              13301.32
262144              27156.58
524288              35697.60
1048576             42727.16
2097152             49816.67
4194304             55589.01
