0 gpu 4 2
1 gpu 2 2
#Using RCCL
#Using RCCL
# Send Buffer on DEVICE (D) and Receive Buffer on DEVICE (D)
# Size      Bandwidth (MB/s)        Validation
1                       0.24
2                       0.49
4                       0.98
8                       1.93
16                      3.86
32                      7.68
64                     15.35
128                    30.64
256                    60.76
512                   120.46
1024                  232.28
2048                  419.11
4096                  725.46
8192                 1507.80
16384                2917.28
32768                4549.62
65536                6279.47
131072              13263.77
262144              26510.87
524288              35494.73
1048576             42164.72
2097152             48747.00
4194304             55423.64
