# Send Buffer on DEVICE (D) and Receive Buffer on DEVICE (D)
# Size      Bandwidth (MB/s)        Validation
1                       0.24
2                       0.49
4                       0.98
8                       1.96
16                      3.93
32                      7.86
64                     15.68
128                    31.27
256                    62.03
512                   121.96
1024                  236.67
2048                  427.42
4096                  737.04
8192                 1527.85
16384                2967.59
32768                4618.50
65536                6399.16
131072              13308.49
262144              26828.16
524288              35103.05
1048576             42367.08
2097152             48419.98
4194304             58113.75
