# Send Buffer on DEVICE (D) and Receive Buffer on DEVICE (D)
# Size      Bandwidth (MB/s)        Validation
1                       0.13
2                       0.26
4                       0.53
8                       1.06
16                      2.16
32                      4.34
64                      8.63
128                    16.38
256                    33.05
512                    65.94
1024                  130.16
2048                  257.16
4096                  511.06
8192                 1003.82
16384                1959.22
32768                2732.06
65536                4625.78
131072               9642.68
262144              14894.79
524288              22124.95
1048576             32225.59
2097152             36715.44
4194304             39860.09
